joint1,2,3,4,5,6,7,manip,x,y,z,force
0.162284,1.27626,2.30208,-1.32974,-1.39753,-0.813043,-0.176277,0.0885623,0.34588,0.348786,0.973071,0.059,
0.163168,1.27627,2.30245,-1.3316,-1.39584,-0.813011,-0.179753,0.0885036,0.344823,0.349008,0.97307,0.159,
0.164057,1.27628,2.30281,-1.33345,-1.39416,-0.812986,-0.183226,0.0884451,0.343766,0.349229,0.97307,0.059,
0.16495,1.27628,2.30316,-1.3353,-1.39248,-0.812968,-0.186696,0.088387,0.342708,0.34945,0.973069,0.359,
0.165848,1.27628,2.30351,-1.33713,-1.39079,-0.812956,-0.190163,0.0883291,0.341651,0.349672,0.973069,0.259,
0.16675,1.27627,2.30385,-1.33896,-1.38911,-0.81295,-0.193627,0.0882714,0.340594,0.349893,0.973068,0.059,
0.1677,1.2762,2.30399,-1.3402,-1.38786,-0.813033,-0.196365,0.0882358,0.339733,0.350177,0.973068,0.059,
0.168654,1.27612,2.30413,-1.34145,-1.38662,-0.813119,-0.199099,0.0882004,0.338872,0.350461,0.973068,0.359,
0.16961,1.27605,2.30426,-1.34268,-1.38537,-0.813209,-0.201831,0.0881652,0.338011,0.350746,0.973068,0.159,
0.170569,1.27597,2.30439,-1.34391,-1.38413,-0.813304,-0.204559,0.0881303,0.33715,0.35103,0.973067,-0.041,
0.171531,1.27588,2.30452,-1.34513,-1.38289,-0.813402,-0.207285,0.0880956,0.336289,0.351314,0.973067,-0.041,
0.171789,1.276,2.3051,-1.34717,-1.38119,-0.813231,-0.210323,0.0880227,0.335416,0.351249,0.973067,0.159,
0.172049,1.27612,2.30567,-1.3492,-1.3795,-0.813064,-0.213361,0.0879498,0.334544,0.351183,0.973066,-0.141,
0.172313,1.27623,2.30625,-1.35122,-1.3778,-0.812903,-0.216397,0.087877,0.333671,0.351118,0.973066,0.059,
0.17258,1.27633,2.30682,-1.35323,-1.3761,-0.812748,-0.219433,0.0878043,0.332799,0.351052,0.973065,-0.041,
0.17285,1.27644,2.30738,-1.35524,-1.37439,-0.812597,-0.222468,0.0877316,0.331926,0.350987,0.973065,0.259,
0.173259,1.27653,2.30801,-1.35759,-1.37237,-0.812451,-0.226113,0.0876478,0.330869,0.350945,0.973064,-0.241,
0.173672,1.27662,2.30863,-1.35992,-1.37035,-0.812313,-0.229756,0.0875642,0.329812,0.350904,0.973064,0.459,
0.174089,1.27671,2.30925,-1.36225,-1.36833,-0.812183,-0.233397,0.0874807,0.328755,0.350862,0.973063,-0.141,
0.174511,1.27679,2.30987,-1.36457,-1.3663,-0.81206,-0.237037,0.0873975,0.327698,0.350821,0.973062,0.359,
0.174938,1.27686,2.31047,-1.36687,-1.36427,-0.811946,-0.240675,0.0873144,0.326641,0.35078,0.973062,0.159,
0.176245,1.27668,2.31051,-1.36819,-1.3628,-0.812174,-0.24394,0.0872805,0.325588,0.351173,0.973061,0.359,
0.177556,1.27649,2.31054,-1.3695,-1.36133,-0.812408,-0.2472,0.0872471,0.324535,0.351565,0.973061,0.059,
0.178871,1.2763,2.31056,-1.3708,-1.35986,-0.812648,-0.250454,0.0872141,0.323482,0.351958,0.973061,-0.041,
0.180191,1.2761,2.31058,-1.37209,-1.3584,-0.812893,-0.253703,0.0871816,0.322429,0.352351,0.97306,0.359,
0.181514,1.2759,2.3106,-1.37338,-1.35694,-0.813145,-0.256946,0.0871495,0.321376,0.352744,0.97306,0.059,
0.181851,1.27595,2.31112,-1.37536,-1.35518,-0.813062,-0.260054,0.0870777,0.320474,0.352685,0.97306,0.159,
0.182192,1.27599,2.31164,-1.37734,-1.35341,-0.812985,-0.26316,0.0870061,0.319573,0.352625,0.973059,0.159,
0.182535,1.27604,2.31216,-1.37931,-1.35164,-0.812913,-0.266265,0.0869347,0.318672,0.352566,0.973059,0.059,
0.182882,1.27607,2.31267,-1.38128,-1.34987,-0.812848,-0.269368,0.0868634,0.31777,0.352507,0.973058,0.059,
0.183231,1.27611,2.31318,-1.38324,-1.3481,-0.812789,-0.27247,0.0867924,0.316869,0.352447,0.973058,0.059,
0.184106,1.27599,2.31333,-1.38459,-1.34669,-0.812934,-0.275317,0.0867522,0.315976,0.352649,0.973057,-0.041,
0.184983,1.27586,2.31349,-1.38594,-1.34528,-0.813084,-0.278161,0.0867122,0.315082,0.352852,0.973057,-0.041,
0.185864,1.27573,2.31364,-1.38728,-1.34387,-0.813239,-0.281002,0.0866726,0.314189,0.353054,0.973057,0.259,
0.186747,1.2756,2.31378,-1.38861,-1.34246,-0.813398,-0.28384,0.0866333,0.313296,0.353256,0.973056,-0.141,
0.187633,1.27547,2.31392,-1.38994,-1.34105,-0.813563,-0.286674,0.0865943,0.312402,0.353458,0.973056,0.359,
0.188692,1.27528,2.31394,-1.39103,-1.33978,-0.813798,-0.289384,0.0865668,0.311522,0.353749,0.973056,-0.141,
0.189754,1.27509,2.31395,-1.39213,-1.33852,-0.814037,-0.292091,0.0865395,0.310641,0.354039,0.973056,0.059,
0.190818,1.27489,2.31396,-1.39321,-1.33726,-0.81428,-0.294793,0.0865126,0.30976,0.35433,0.973055,0.059,
0.191885,1.2747,2.31396,-1.39429,-1.336,-0.814527,-0.297492,0.086486,0.30888,0.35462,0.973055,0.159,
0.192955,1.27449,2.31396,-1.39537,-1.33474,-0.814779,-0.300187,0.0864598,0.307999,0.354911,0.973055,0.159,
0.193667,1.27441,2.31435,-1.39736,-1.33279,-0.814866,-0.303762,0.0863929,0.306918,0.354965,0.973054,0.059,
0.194382,1.27433,2.31474,-1.39935,-1.33083,-0.814961,-0.307334,0.0863264,0.305838,0.35502,0.973054,-0.241,
0.195102,1.27424,2.31513,-1.40133,-1.32888,-0.815064,-0.310902,0.0862604,0.304757,0.355074,0.973053,0.159,
0.195826,1.27414,2.3155,-1.4033,-1.32693,-0.815175,-0.314467,0.0861948,0.303677,0.355129,0.973053,-0.141,
0.196553,1.27404,2.31588,-1.40526,-1.32497,-0.815294,-0.318028,0.0861297,0.302596,0.355183,0.973052,-0.141,
0.197338,1.27388,2.31593,-1.40625,-1.32386,-0.815487,-0.320292,0.0861032,0.301868,0.355366,0.973052,0.259,
0.198124,1.27372,2.31598,-1.40723,-1.32274,-0.815684,-0.322553,0.086077,0.301139,0.355549,0.973052,0.159,
0.198912,1.27356,2.31603,-1.40821,-1.32163,-0.815883,-0.324811,0.0860509,0.300411,0.355732,0.973051,0.059,
0.199702,1.2734,2.31607,-1.40919,-1.32051,-0.816085,-0.327067,0.0860252,0.299682,0.355914,0.973051,-0.041,
0.200494,1.27323,2.31612,-1.41016,-1.3194,-0.81629,-0.32932,0.0859996,0.298954,0.356097,0.973051,0.159,
0.201137,1.27311,2.31628,-1.41138,-1.31812,-0.81644,-0.331744,0.0859626,0.298197,0.356196,0.973051,0.259,
0.201783,1.27299,2.31644,-1.41259,-1.31684,-0.816593,-0.334166,0.0859259,0.29744,0.356296,0.97305,-0.041,
0.20243,1.27286,2.31659,-1.41379,-1.31556,-0.81675,-0.336586,0.0858893,0.296683,0.356395,0.97305,-0.141,
0.203079,1.27273,2.31675,-1.41499,-1.31428,-0.81691,-0.339003,0.0858531,0.295926,0.356494,0.97305,0.059,
0.203731,1.27259,2.3169,-1.41619,-1.313,-0.817074,-0.341418,0.085817,0.29517,0.356593,0.97305,-0.041,
0.204391,1.27244,2.31689,-1.41687,-1.31218,-0.817262,-0.343116,0.0858012,0.29461,0.356756,0.97305,0.159,
0.205052,1.27229,2.31688,-1.41754,-1.31136,-0.817452,-0.344811,0.0857854,0.294051,0.356918,0.973049,0.359,
0.205714,1.27214,2.31687,-1.41822,-1.31054,-0.817644,-0.346505,0.0857698,0.293492,0.357081,0.973049,-0.241,
0.206377,1.27198,2.31685,-1.41889,-1.30973,-0.817837,-0.348198,0.0857544,0.292933,0.357243,0.973049,-0.141,
0.207041,1.27183,2.31684,-1.41956,-1.30891,-0.818032,-0.349888,0.085739,0.292374,0.357405,0.973049,0.059,
0.207344,1.27181,2.31767,-1.42265,-1.30602,-0.818033,-0.354585,0.085625,0.291029,0.357144,0.973048,0.159,
0.207652,1.27178,2.3185,-1.42572,-1.30312,-0.818049,-0.359277,0.0855115,0.289684,0.356882,0.973047,0.059,
0.207967,1.27174,2.31932,-1.42878,-1.30022,-0.818079,-0.363965,0.0853988,0.288339,0.356621,0.973045,0.059,
0.208287,1.27168,2.32013,-1.43182,-1.29732,-0.818124,-0.368649,0.0852868,0.286993,0.356359,0.973044,-0.141,
0.208613,1.27162,2.32093,-1.43486,-1.2944,-0.818185,-0.373328,0.0851755,0.285648,0.356098,0.973043,0.159,
0.209115,1.27149,2.32115,-1.43619,-1.293,-0.81834,-0.375791,0.0851327,0.284895,0.356111,0.973042,0.059,
0.209618,1.27136,2.32138,-1.43752,-1.2916,-0.8185,-0.378251,0.0850902,0.284141,0.356124,0.973042,0.059,
0.210124,1.27123,2.3216,-1.43885,-1.2902,-0.818663,-0.38071,0.0850479,0.283387,0.356137,0.973042,-0.141,
0.21063,1.27109,2.32182,-1.44017,-1.2888,-0.818831,-0.383167,0.0850059,0.282633,0.356149,0.973041,0.059,
0.211139,1.27095,2.32204,-1.44149,-1.2874,-0.819002,-0.385621,0.0849641,0.281879,0.356162,0.973041,-0.141,
0.212167,1.27066,2.32204,-1.44267,-1.28595,-0.81936,-0.388469,0.0849365,0.280943,0.356377,0.973041,0.059,
0.213197,1.27038,2.32203,-1.44385,-1.2845,-0.819722,-0.391312,0.0849092,0.280006,0.356591,0.97304,0.059,
0.21423,1.27008,2.32202,-1.44503,-1.28306,-0.820089,-0.39415,0.0848824,0.27907,0.356806,0.97304,-0.041,
0.215266,1.26979,2.322,-1.44619,-1.28162,-0.820461,-0.396984,0.0848559,0.278133,0.35702,0.97304,-0.141,
0.216305,1.26949,2.32198,-1.44736,-1.28018,-0.820838,-0.399814,0.0848299,0.277196,0.357235,0.973039,-0.041,
0.216512,1.26941,2.32257,-1.44958,-1.278,-0.820926,-0.403238,0.0847488,0.276213,0.357012,0.973039,-0.041,
0.216722,1.26932,2.32315,-1.4518,-1.27582,-0.821023,-0.40666,0.0846682,0.275229,0.356788,0.973038,0.059,
0.216936,1.26923,2.32373,-1.45401,-1.27363,-0.821127,-0.410079,0.084588,0.274246,0.356565,0.973037,0.059,
0.217152,1.26913,2.3243,-1.45622,-1.27145,-0.82124,-0.413496,0.0845082,0.273262,0.356342,0.973036,0.059,
0.21737,1.26902,2.32487,-1.45841,-1.26926,-0.821361,-0.416909,0.084429,0.272279,0.356119,0.973036,0.259,
0.218121,1.26876,2.3252,-1.46048,-1.26702,-0.821685,-0.420726,0.0843647,0.271105,0.356099,0.973035,0.159,
0.218875,1.26849,2.32553,-1.46253,-1.26478,-0.822018,-0.424537,0.0843011,0.269931,0.356079,0.973034,-0.141,
0.219633,1.26821,2.32585,-1.46457,-1.26254,-0.822361,-0.428343,0.0842382,0.268757,0.356059,0.973033,0.059,
0.220395,1.26792,2.32617,-1.46661,-1.2603,-0.822714,-0.432143,0.0841759,0.267583,0.356039,0.973032,0.059,
0.221162,1.26763,2.32648,-1.46863,-1.25806,-0.823077,-0.435937,0.0841143,0.266409,0.356019,0.973031,-0.041,
0.222607,1.26717,2.32615,-1.46934,-1.25688,-0.823659,-0.438578,0.0841153,0.265455,0.356419,0.973031,0.259,
0.224056,1.26671,2.32582,-1.47003,-1.25571,-0.824245,-0.441211,0.0841167,0.264501,0.356819,0.973031,0.059,
0.225507,1.26625,2.32548,-1.47072,-1.25455,-0.824835,-0.443839,0.0841185,0.263547,0.357219,0.973031,0.059,
0.226962,1.26578,2.32514,-1.47141,-1.25339,-0.825427,-0.44646,0.0841206,0.262593,0.357619,0.973031,0.159,
0.228421,1.26531,2.3248,-1.47208,-1.25223,-0.826023,-0.449075,0.0841231,0.261639,0.358019,0.97303,0.059,
0.228702,1.26514,2.32532,-1.47425,-1.25,-0.826231,-0.452533,0.0840479,0.260627,0.357798,0.97303,0.259,
0.228986,1.26496,2.32584,-1.47641,-1.24777,-0.826447,-0.455988,0.0839733,0.259616,0.357578,0.973029,-0.141,
0.229274,1.26477,2.32635,-1.47856,-1.24554,-0.826672,-0.45944,0.0838992,0.258605,0.357357,0.973028,0.159,
0.229564,1.26457,2.32686,-1.4807,-1.24331,-0.826905,-0.462887,0.0838256,0.257593,0.357137,0.973027,0.259,
0.229856,1.26437,2.32737,-1.48284,-1.24108,-0.827147,-0.466331,0.0837525,0.256582,0.356916,0.973026,0.059,
0.230694,1.264,2.32762,-1.48482,-1.23881,-0.827607,-0.470159,0.0836961,0.255378,0.356901,0.973025,-0.141,
0.231536,1.26363,2.32786,-1.48679,-1.23654,-0.828077,-0.473981,0.0836404,0.254173,0.356886,0.973025,0.059,
0.232383,1.26324,2.3281,-1.48875,-1.23427,-0.828556,-0.477796,0.0835854,0.252969,0.356871,0.973024,0.259,
0.233233,1.26285,2.32833,-1.4907,-1.23201,-0.829045,-0.481604,0.083531,0.251764,0.356855,0.973023,-0.241,
0.234088,1.26244,2.32856,-1.49264,-1.22975,-0.829544,-0.485406,0.0834774,0.25056,0.35684,0.973022,-0.141,
0.23508,1.26201,2.32865,-1.49433,-1.22769,-0.830089,-0.48899,0.0834361,0.249394,0.356908,0.973021,0.059,
0.236077,1.26157,2.32875,-1.49601,-1.22564,-0.830642,-0.492567,0.0833954,0.248227,0.356975,0.973021,0.059,
0.237078,1.26112,2.32883,-1.49767,-1.22359,-0.831203,-0.496137,0.0833553,0.247061,0.357043,0.97302,0.159,
0.238082,1.26066,2.32891,-1.49933,-1.22154,-0.831773,-0.4997,0.0833159,0.245895,0.35711,0.973019,0.059,
0.239091,1.2602,2.32898,-1.50099,-1.21949,-0.832351,-0.503257,0.083277,0.244728,0.357178,0.973019,0.159,
0.241011,1.25947,2.32852,-1.50204,-1.21775,-0.833267,-0.506947,0.0832786,0.243375,0.357637,0.973018,0.259,
0.242937,1.25874,2.32806,-1.50308,-1.21601,-0.83419,-0.510625,0.0832809,0.242021,0.358095,0.973017,0.159,
0.24487,1.258,2.32759,-1.5041,-1.21428,-0.83512,-0.514291,0.0832838,0.240667,0.358554,0.973017,0.159,
0.246809,1.25726,2.32711,-1.50511,-1.21256,-0.836055,-0.517944,0.0832874,0.239314,0.359013,0.973016,-0.041,
0.248754,1.25651,2.32662,-1.50611,-1.21085,-0.836998,-0.521584,0.0832917,0.23796,0.359472,0.973016,0.159,
0.250329,1.25592,2.32615,-1.50665,-1.20974,-0.837736,-0.524133,0.0833048,0.236975,0.359885,0.973016,0.159,
0.251908,1.25533,2.32567,-1.50719,-1.20864,-0.838476,-0.526675,0.0833182,0.23599,0.360298,0.973015,-0.041,
0.253491,1.25474,2.32519,-1.50771,-1.20755,-0.839219,-0.52921,0.0833319,0.235004,0.360711,0.973015,0.059,
0.255077,1.25415,2.32471,-1.50823,-1.20646,-0.839965,-0.531738,0.083346,0.234019,0.361125,0.973015,-0.041,
0.256667,1.25355,2.32422,-1.50874,-1.20538,-0.840713,-0.534258,0.0833603,0.233034,0.361538,0.973015,0.159,
0.257608,1.25313,2.32412,-1.50971,-1.20404,-0.841232,-0.536733,0.0833451,0.232171,0.361667,0.973014,-0.341,
0.258551,1.25271,2.32402,-1.51067,-1.20271,-0.841755,-0.539203,0.0833302,0.231309,0.361796,0.973014,0.159,
0.259497,1.25229,2.32391,-1.51163,-1.20139,-0.842281,-0.541669,0.0833156,0.230446,0.361926,0.973014,0.159,
0.260445,1.25186,2.3238,-1.51259,-1.20007,-0.842811,-0.54413,0.0833013,0.229583,0.362055,0.973013,-0.141,
0.261396,1.25143,2.32369,-1.51354,-1.19874,-0.843344,-0.546588,0.0832873,0.228721,0.362184,0.973013,0.059,
0.262919,1.2509,2.32308,-1.51355,-1.1982,-0.844017,-0.54829,0.0833182,0.227972,0.362653,0.973013,0.059,
0.264444,1.25036,2.32247,-1.51355,-1.19766,-0.844691,-0.549988,0.0833492,0.227224,0.363123,0.973013,0.159,
0.265972,1.24982,2.32186,-1.51355,-1.19713,-0.845365,-0.551681,0.0833804,0.226475,0.363592,0.973013,0.059,
0.267502,1.24929,2.32124,-1.51354,-1.1966,-0.846039,-0.553368,0.0834116,0.225727,0.364061,0.973013,-0.141,
0.269034,1.24875,2.32062,-1.51353,-1.19607,-0.846714,-0.555051,0.0834431,0.224978,0.36453,0.973013,-0.041,
0.270322,1.2482,2.32036,-1.51441,-1.19471,-0.847392,-0.557772,0.0834382,0.223977,0.364765,0.973012,0.359,
0.271613,1.24765,2.32008,-1.51528,-1.19335,-0.848073,-0.560486,0.0834336,0.222976,0.364999,0.973012,0.159,
0.272908,1.2471,2.31981,-1.51615,-1.192,-0.848758,-0.563194,0.0834294,0.221974,0.365234,0.973012,0.059,
0.274206,1.24654,2.31953,-1.517,-1.19065,-0.849447,-0.565896,0.0834256,0.220973,0.365469,0.973011,0.359,
0.275508,1.24598,2.31925,-1.51786,-1.1893,-0.850139,-0.568592,0.083422,0.219971,0.365703,0.973011,0.259,
0.276253,1.24559,2.31925,-1.51893,-1.18792,-0.850616,-0.570999,0.0833995,0.219151,0.365729,0.973011,0.059,
0.277,1.2452,2.31925,-1.52,-1.18655,-0.851096,-0.573402,0.0833773,0.218331,0.365755,0.97301,0.159,
0.277749,1.24481,2.31925,-1.52107,-1.18517,-0.85158,-0.575802,0.0833553,0.217511,0.365781,0.97301,-0.141,
0.278501,1.24441,2.31924,-1.52213,-1.1838,-0.852068,-0.578198,0.0833335,0.216691,0.365807,0.97301,-0.041,
0.279254,1.24401,2.31924,-1.52319,-1.18242,-0.852559,-0.58059,0.083312,0.215871,0.365832,0.973009,0.059,
0.280373,1.24353,2.31896,-1.52381,-1.18137,-0.853156,-0.582752,0.0833129,0.215049,0.366044,0.973009,0.159,
0.281494,1.24304,2.31868,-1.52444,-1.18032,-0.853756,-0.58491,0.083314,0.214228,0.366256,0.973009,0.159,
0.282617,1.24255,2.3184,-1.52505,-1.17928,-0.854358,-0.587063,0.0833153,0.213407,0.366468,0.973009,-0.241,
0.283743,1.24206,2.31811,-1.52567,-1.17823,-0.854961,-0.589211,0.0833168,0.212585,0.36668,0.973008,-0.141,
0.284871,1.24157,2.31782,-1.52628,-1.17719,-0.855567,-0.591356,0.0833185,0.211764,0.366892,0.973008,0.059,
0.28542,1.24112,2.31814,-1.52821,-1.17498,-0.856111,-0.59481,0.0832627,0.210674,0.366683,0.973007,0.159,
0.285973,1.24067,2.31846,-1.53013,-1.17276,-0.856662,-0.598258,0.0832074,0.209584,0.366475,0.973007,0.059,
0.286529,1.2402,2.31877,-1.53204,-1.17054,-0.857222,-0.6017,0.0831527,0.208494,0.366266,0.973006,-0.041,
0.287089,1.23973,2.31908,-1.53395,-1.16833,-0.857791,-0.605137,0.0830984,0.207404,0.366058,0.973005,-0.041,
0.287652,1.23926,2.31939,-1.53585,-1.16612,-0.858367,-0.608567,0.0830446,0.206314,0.365849,0.973004,0.159,
0.288588,1.23869,2.31941,-1.53732,-1.16422,-0.859055,-0.611777,0.0830133,0.205217,0.365828,0.973003,0.059,
0.289528,1.23812,2.31943,-1.53879,-1.16232,-0.859749,-0.61498,0.0829824,0.20412,0.365806,0.973003,0.159,
0.290472,1.23755,2.31945,-1.54024,-1.16043,-0.860449,-0.618177,0.0829519,0.203023,0.365785,0.973002,-0.041,
0.291419,1.23697,2.31946,-1.54169,-1.15855,-0.861156,-0.621367,0.0829219,0.201925,0.365763,0.973001,0.159,
0.29237,1.23638,2.31947,-1.54313,-1.15666,-0.861869,-0.62455,0.0828922,0.200828,0.365742,0.973001,0.059,
0.293337,1.23578,2.31947,-1.54457,-1.15477,-0.862595,-0.627753,0.0828629,0.199721,0.365722,0.973,-0.141,
0.294309,1.23518,2.31947,-1.54601,-1.15288,-0.863328,-0.63095,0.082834,0.198614,0.365702,0.972999,0.059,
0.295284,1.23457,2.31946,-1.54743,-1.151,-0.864068,-0.634139,0.0828055,0.197507,0.365682,0.972999,0.059,
0.296263,1.23396,2.31945,-1.54885,-1.14912,-0.864813,-0.637322,0.0827774,0.1964,0.365661,0.972998,0.059,
0.297246,1.23334,2.31943,-1.55026,-1.14724,-0.865565,-0.640498,0.0827497,0.195293,0.365641,0.972997,0.259,
0.298474,1.23259,2.31936,-1.55185,-1.14508,-0.866477,-0.644212,0.082721,0.193983,0.365648,0.972996,-0.141,
0.299708,1.23183,2.31928,-1.55344,-1.14292,-0.867398,-0.647915,0.0826928,0.192672,0.365655,0.972995,-0.141,
0.300947,1.23106,2.3192,-1.55501,-1.14077,-0.868327,-0.651609,0.0826651,0.191361,0.365662,0.972995,0.059,
0.302192,1.23028,2.31911,-1.55656,-1.13863,-0.869264,-0.655293,0.082638,0.190051,0.365669,0.972994,0.159,
0.303443,1.2295,2.31901,-1.55811,-1.13649,-0.870209,-0.658968,0.0826113,0.18874,0.365675,0.972993,0.059,
0.305144,1.22865,2.31852,-1.55896,-1.13495,-0.871236,-0.662089,0.0826177,0.1875,0.365947,0.972992,0.159,
0.30685,1.2278,2.31802,-1.55979,-1.13341,-0.872267,-0.6652,0.0826244,0.18626,0.366219,0.972992,0.159,
0.308563,1.22695,2.31752,-1.56062,-1.13189,-0.873303,-0.668302,0.0826315,0.185019,0.36649,0.972991,-0.141,
0.310281,1.22609,2.31701,-1.56144,-1.13037,-0.874342,-0.671394,0.0826389,0.183779,0.366762,0.972991,-0.041,
0.312005,1.22522,2.3165,-1.56224,-1.12886,-0.875385,-0.674476,0.0826466,0.182539,0.367034,0.97299,0.159,
0.312717,1.22459,2.3167,-1.56402,-1.12666,-0.876138,-0.6779,0.0826008,0.1814,0.366828,0.972989,-0.041,
0.313433,1.22396,2.3169,-1.56579,-1.12447,-0.876899,-0.681318,0.0825554,0.180261,0.366622,0.972989,0.159,
0.314154,1.22331,2.31709,-1.56755,-1.12228,-0.877667,-0.684729,0.0825105,0.179122,0.366417,0.972988,0.259,
0.314878,1.22266,2.31728,-1.56931,-1.12009,-0.878444,-0.688132,0.0824659,0.177984,0.366211,0.972987,0.159,
0.315607,1.22201,2.31746,-1.57105,-1.1179,-0.879228,-0.691529,0.0824218,0.176845,0.366005,0.972986,-0.141,
0.316525,1.22143,2.31732,-1.57194,-1.11659,-0.879913,-0.693855,0.0824104,0.175979,0.366037,0.972985,-0.341,
0.317445,1.22086,2.31717,-1.57283,-1.11527,-0.880601,-0.696177,0.0823992,0.175113,0.366068,0.972985,0.259,
0.318368,1.22028,2.31702,-1.57371,-1.11396,-0.881291,-0.698495,0.0823881,0.174247,0.366099,0.972985,-0.041,
0.319293,1.2197,2.31687,-1.57458,-1.11265,-0.881985,-0.700808,0.0823773,0.173382,0.366131,0.972984,0.059,
0.320222,1.21912,2.31671,-1.57546,-1.11135,-0.882681,-0.703118,0.0823666,0.172516,0.366162,0.972984,0.159,
0.321472,1.21843,2.31636,-1.57614,-1.11013,-0.883501,-0.705494,0.0823688,0.171563,0.366315,0.972984,0.059,
0.322726,1.21775,2.316,-1.57681,-1.10892,-0.884323,-0.707865,0.0823711,0.170611,0.366467,0.972983,0.059,
0.323983,1.21706,2.31564,-1.57748,-1.10771,-0.885147,-0.71023,0.0823736,0.169659,0.366619,0.972983,0.059,
0.325244,1.21636,2.31528,-1.57815,-1.10651,-0.885974,-0.71259,0.0823763,0.168706,0.366772,0.972983,0.159,
0.326508,1.21567,2.31492,-1.57881,-1.10531,-0.886803,-0.714944,0.0823791,0.167754,0.366924,0.972983,0.159,
0.32834,1.21471,2.31431,-1.5795,-1.10387,-0.88794,-0.717965,0.0823919,0.166487,0.367203,0.972982,0.159,
0.330178,1.21376,2.3137,-1.58018,-1.10243,-0.88908,-0.720976,0.082405,0.16522,0.367481,0.972982,0.359,
0.332022,1.2128,2.31308,-1.58085,-1.101,-0.890223,-0.723977,0.0824183,0.163953,0.367759,0.972981,-0.041,
0.333873,1.21183,2.31246,-1.58152,-1.09957,-0.891369,-0.726968,0.0824319,0.162686,0.368038,0.972981,0.159,
0.33573,1.21086,2.31183,-1.58217,-1.09816,-0.892518,-0.729949,0.0824458,0.161419,0.368316,0.97298,0.059,
0.336465,1.21039,2.3117,-1.58284,-1.09715,-0.893082,-0.731743,0.0824372,0.160737,0.368325,0.97298,0.259,
0.337201,1.20991,2.31158,-1.58351,-1.09613,-0.893648,-0.733534,0.0824286,0.160054,0.368334,0.97298,-0.041,
