joint1,2,3,4,5,6,7,manip,x,y,z,force
0.160772,1.27849,2.30263,-1.33528,-1.39617,-0.81406,-0.179811,0.0886388,0.344937,0.348173,0.972045,0.159,
0.162069,1.27842,2.30287,-1.33711,-1.3944,-0.814138,-0.183697,0.0885849,0.343722,0.348563,0.972044,-0.041,
0.163372,1.27834,2.3031,-1.33892,-1.39263,-0.814223,-0.187578,0.0885315,0.342508,0.348952,0.972044,0.059,
0.164681,1.27825,2.30332,-1.34072,-1.39086,-0.814317,-0.191452,0.0884786,0.341294,0.349341,0.972043,0.159,
0.165995,1.27816,2.30354,-1.34251,-1.38909,-0.814419,-0.195322,0.0884261,0.34008,0.349731,0.972043,-0.141,
0.167316,1.27806,2.30375,-1.34429,-1.38733,-0.814529,-0.199185,0.0883741,0.338866,0.35012,0.972042,0.159,
0.168557,1.27794,2.30385,-1.34567,-1.38589,-0.814672,-0.202429,0.0883361,0.337831,0.350507,0.972042,0.359,
0.169803,1.27781,2.30394,-1.34704,-1.38446,-0.814821,-0.205668,0.0882985,0.336797,0.350894,0.972042,0.159,
0.171052,1.27768,2.30403,-1.34841,-1.38303,-0.814976,-0.208903,0.0882612,0.335763,0.35128,0.972042,-0.041,
0.172306,1.27755,2.30412,-1.34976,-1.3816,-0.815136,-0.212132,0.0882244,0.334728,0.351667,0.972041,0.059,
0.173564,1.27741,2.3042,-1.35111,-1.38017,-0.815301,-0.215357,0.088188,0.333694,0.352054,0.972041,0.059,
0.173872,1.27762,2.30519,-1.35449,-1.37738,-0.814998,-0.220276,0.0880637,0.33229,0.351888,0.97204,0.159,
0.174189,1.27782,2.30617,-1.35786,-1.37458,-0.814708,-0.225193,0.0879396,0.330887,0.351722,0.972038,0.159,
0.174514,1.27801,2.30714,-1.36121,-1.37177,-0.814433,-0.230109,0.0878156,0.329484,0.351557,0.972037,0.159,
0.174848,1.27819,2.3081,-1.36454,-1.36896,-0.814172,-0.235022,0.0876917,0.32808,0.351391,0.972036,0.059,
0.175189,1.27835,2.30906,-1.36786,-1.36614,-0.813925,-0.239933,0.0875681,0.326677,0.351226,0.972035,0.059,
0.175975,1.27832,2.30944,-1.36978,-1.36432,-0.813947,-0.24344,0.0875037,0.325614,0.351358,0.972034,0.359,
0.176764,1.27829,2.30981,-1.3717,-1.36251,-0.813977,-0.246944,0.0874396,0.324551,0.35149,0.972034,0.359,
0.177558,1.27824,2.31018,-1.37361,-1.3607,-0.814014,-0.250445,0.0873759,0.323488,0.351622,0.972033,0.159,
0.178356,1.2782,2.31054,-1.37551,-1.35888,-0.814057,-0.253943,0.0873125,0.322425,0.351754,0.972033,0.159,
0.179158,1.27814,2.3109,-1.3774,-1.35707,-0.814108,-0.257437,0.0872495,0.321363,0.351887,0.972032,-0.141,
0.180113,1.27807,2.31131,-1.37961,-1.35493,-0.814179,-0.261544,0.087176,0.320111,0.352045,0.972032,0.359,
0.181073,1.27799,2.31171,-1.38181,-1.3528,-0.814259,-0.265647,0.087103,0.31886,0.352203,0.972031,0.059,
0.182039,1.27791,2.31211,-1.384,-1.35066,-0.814349,-0.269745,0.0870306,0.317609,0.352362,0.97203,0.359,
0.183011,1.27782,2.31249,-1.38618,-1.34853,-0.81445,-0.273838,0.0869588,0.316358,0.35252,0.972029,0.159,
0.183989,1.27772,2.31287,-1.38834,-1.34639,-0.81456,-0.277926,0.0868875,0.315107,0.352678,0.972029,0.259,
0.185153,1.27756,2.31312,-1.39029,-1.34438,-0.814749,-0.281919,0.0868275,0.31386,0.352927,0.972028,0.059,
0.186323,1.27739,2.31337,-1.39222,-1.34238,-0.814947,-0.285906,0.0867681,0.312612,0.353177,0.972027,0.259,
0.187498,1.27722,2.3136,-1.39414,-1.34037,-0.815154,-0.289887,0.0867094,0.311364,0.353426,0.972027,0.159,
0.188679,1.27703,2.31383,-1.39605,-1.33837,-0.815371,-0.293862,0.0866513,0.310116,0.353676,0.972026,-0.041,
0.189865,1.27685,2.31405,-1.39795,-1.33636,-0.815597,-0.297831,0.0865938,0.308869,0.353925,0.972026,-0.141,
0.190573,1.27677,2.31445,-1.39995,-1.33441,-0.81568,-0.301406,0.0865257,0.307789,0.353979,0.972025,-0.241,
0.191285,1.27668,2.31484,-1.40195,-1.33246,-0.81577,-0.304978,0.086458,0.306708,0.354034,0.972024,0.359,
0.192001,1.27659,2.31523,-1.40393,-1.33051,-0.815868,-0.308547,0.0863907,0.305628,0.354089,0.972024,0.059,
0.192721,1.2765,2.31561,-1.4059,-1.32855,-0.815974,-0.312112,0.0863239,0.304548,0.354143,0.972023,0.159,
0.193445,1.2764,2.31598,-1.40787,-1.3266,-0.816088,-0.315673,0.0862575,0.303468,0.354198,0.972023,0.059,
0.194216,1.27626,2.3162,-1.40939,-1.32502,-0.816246,-0.318664,0.0862095,0.30254,0.354318,0.972022,0.059,
0.19499,1.27613,2.31642,-1.41091,-1.32344,-0.81641,-0.321652,0.0861618,0.301612,0.354437,0.972022,0.059,
0.195767,1.27599,2.31663,-1.41241,-1.32186,-0.81658,-0.324636,0.0861145,0.300683,0.354557,0.972021,0.259,
0.196546,1.27584,2.31684,-1.41392,-1.32028,-0.816754,-0.327618,0.0860675,0.299755,0.354677,0.972021,0.159,
0.197329,1.27569,2.31704,-1.41541,-1.3187,-0.816934,-0.330596,0.0860209,0.298827,0.354797,0.972021,0.159,
0.198476,1.27542,2.31684,-1.41599,-1.31783,-0.817275,-0.332693,0.086016,0.298095,0.355156,0.97202,0.159,
0.199624,1.27515,2.31665,-1.41657,-1.31696,-0.817619,-0.334787,0.0860113,0.297364,0.355515,0.97202,0.259,
0.200775,1.27488,2.31645,-1.41713,-1.31609,-0.817964,-0.336878,0.0860069,0.296632,0.355874,0.97202,-0.041,
0.201928,1.27461,2.31624,-1.4177,-1.31523,-0.818311,-0.338964,0.0860027,0.2959,0.356233,0.97202,-0.041,
0.203083,1.27433,2.31604,-1.41826,-1.31436,-0.818661,-0.341047,0.0859987,0.295169,0.356593,0.97202,0.259,
0.203364,1.27433,2.31689,-1.42136,-1.31149,-0.818633,-0.345723,0.0858822,0.293832,0.356329,0.972019,0.059,
0.203652,1.27432,2.31773,-1.42445,-1.30861,-0.81862,-0.350396,0.0857663,0.292494,0.356066,0.972017,0.159,
0.203946,1.2743,2.31856,-1.42752,-1.30573,-0.818621,-0.355064,0.085651,0.291157,0.355803,0.972016,-0.041,
0.204246,1.27427,2.31938,-1.43058,-1.30284,-0.818637,-0.359729,0.0855365,0.28982,0.35554,0.972015,0.159,
0.204551,1.27422,2.32019,-1.43362,-1.29995,-0.818668,-0.36439,0.0854226,0.288483,0.355277,0.972013,-0.241,
0.205551,1.27397,2.32022,-1.43484,-1.29851,-0.818983,-0.367239,0.0853917,0.287555,0.355489,0.972013,0.259,
0.206554,1.27372,2.32025,-1.43605,-1.29707,-0.819303,-0.370083,0.0853613,0.286627,0.355702,0.972013,-0.041,
0.207559,1.27346,2.32026,-1.43726,-1.29563,-0.819628,-0.372924,0.0853312,0.285699,0.355914,0.972012,0.159,
0.208568,1.27319,2.32028,-1.43845,-1.2942,-0.819958,-0.37576,0.0853016,0.28477,0.356127,0.972012,-0.041,
0.209579,1.27292,2.32029,-1.43965,-1.29277,-0.820292,-0.378592,0.0852723,0.283842,0.356339,0.972012,0.159,
0.210599,1.27265,2.3203,-1.44084,-1.29133,-0.820633,-0.381435,0.0852433,0.282909,0.356553,0.972011,0.259,
0.211622,1.27237,2.3203,-1.44203,-1.28989,-0.820979,-0.384273,0.0852147,0.281976,0.356767,0.972011,-0.141,
0.212647,1.27209,2.3203,-1.44321,-1.28846,-0.82133,-0.387107,0.0851865,0.281043,0.356981,0.972011,0.059,
0.213676,1.27181,2.32029,-1.44438,-1.28703,-0.821685,-0.389936,0.0851586,0.28011,0.357195,0.97201,0.059,
0.214707,1.27152,2.32028,-1.44555,-1.2856,-0.822044,-0.392761,0.0851312,0.279177,0.357409,0.97201,0.059,
0.215065,1.27142,2.32047,-1.4466,-1.2845,-0.82217,-0.394651,0.0850972,0.278599,0.357398,0.97201,0.059,
0.215424,1.27131,2.32065,-1.44764,-1.28341,-0.822298,-0.39654,0.0850633,0.278021,0.357388,0.97201,0.059,
0.215784,1.2712,2.32083,-1.44867,-1.28231,-0.822428,-0.398428,0.0850296,0.277444,0.357378,0.97201,-0.041,
0.216145,1.27109,2.32102,-1.44971,-1.28121,-0.822561,-0.400315,0.084996,0.276866,0.357368,0.972009,0.159,
0.216507,1.27098,2.32119,-1.45074,-1.28012,-0.822696,-0.402201,0.0849626,0.276288,0.357358,0.972009,-0.141,
0.217239,1.27075,2.32155,-1.45282,-1.27791,-0.822973,-0.405998,0.0848955,0.275124,0.357337,0.972008,0.159,
0.217975,1.27052,2.3219,-1.45489,-1.27571,-0.823259,-0.40979,0.084829,0.27396,0.357316,0.972008,0.259,
0.218715,1.27027,2.32225,-1.45695,-1.2735,-0.823555,-0.413577,0.0847632,0.272796,0.357296,0.972007,0.359,
0.219459,1.27002,2.32259,-1.459,-1.27129,-0.82386,-0.417359,0.084698,0.271632,0.357275,0.972006,0.159,
0.220207,1.26976,2.32292,-1.46104,-1.26908,-0.824174,-0.421136,0.0846334,0.270468,0.357254,0.972005,-0.241,
0.221285,1.26942,2.32286,-1.46217,-1.26764,-0.8246,-0.423969,0.08461,0.269518,0.357473,0.972005,0.159,
0.222366,1.26908,2.3228,-1.4633,-1.2662,-0.82503,-0.426797,0.0845869,0.268568,0.357691,0.972005,0.159,
0.22345,1.26873,2.32274,-1.46441,-1.26477,-0.825464,-0.42962,0.0845642,0.267618,0.35791,0.972004,0.159,
0.224537,1.26838,2.32267,-1.46552,-1.26333,-0.825904,-0.432438,0.084542,0.266668,0.358129,0.972004,0.059,
0.225626,1.26803,2.3226,-1.46663,-1.2619,-0.826348,-0.435251,0.0845201,0.265718,0.358347,0.972004,-0.141,
0.22589,1.26788,2.32314,-1.46881,-1.2597,-0.826517,-0.438694,0.0844424,0.264716,0.358126,0.972003,0.059,
0.226157,1.26773,2.32367,-1.47098,-1.25749,-0.826694,-0.442133,0.0843651,0.263713,0.357905,0.972002,0.159,
0.226426,1.26757,2.3242,-1.47314,-1.25529,-0.82688,-0.445569,0.0842883,0.26271,0.357684,0.972001,-0.041,
0.226699,1.26741,2.32473,-1.4753,-1.25308,-0.827075,-0.449002,0.0842121,0.261708,0.357463,0.972,0.159,
0.226974,1.26724,2.32525,-1.47745,-1.25087,-0.827278,-0.452431,0.0841363,0.260705,0.357242,0.972,-0.141,
0.227611,1.26696,2.32552,-1.4792,-1.24893,-0.827611,-0.455686,0.0840827,0.259695,0.357201,0.971999,0.059,
0.228251,1.26669,2.32578,-1.48095,-1.24698,-0.827951,-0.458937,0.0840296,0.258686,0.357161,0.971998,0.359,
0.228894,1.2664,2.32604,-1.48269,-1.24504,-0.828299,-0.462183,0.083977,0.257676,0.35712,0.971998,0.059,
0.229539,1.26612,2.3263,-1.48442,-1.2431,-0.828654,-0.465425,0.0839249,0.256667,0.357079,0.971997,0.159,
0.230188,1.26582,2.32655,-1.48614,-1.24116,-0.829015,-0.468663,0.0838732,0.255657,0.357038,0.971997,0.259,
0.231216,1.26538,2.3268,-1.48836,-1.23859,-0.829567,-0.473048,0.0838108,0.254266,0.357048,0.971995,0.259,
0.232249,1.26492,2.32704,-1.49056,-1.23602,-0.830131,-0.477424,0.0837493,0.252874,0.357057,0.971994,0.259,
0.233288,1.26445,2.32727,-1.49276,-1.23346,-0.830708,-0.481791,0.0836886,0.251483,0.357067,0.971993,0.259,
0.234333,1.26398,2.32749,-1.49494,-1.2309,-0.831297,-0.486149,0.0836289,0.250091,0.357076,0.971992,0.359,
0.235384,1.26349,2.3277,-1.4971,-1.22834,-0.831899,-0.490497,0.0835701,0.2487,0.357086,0.971991,0.059,
0.236554,1.26304,2.32754,-1.49813,-1.2269,-0.83247,-0.493305,0.0835561,0.247722,0.357312,0.971991,0.259,
0.237728,1.26258,2.32737,-1.49914,-1.22546,-0.833045,-0.496107,0.0835425,0.246744,0.357538,0.97199,0.059,
0.238905,1.26212,2.3272,-1.50015,-1.22403,-0.833624,-0.498903,0.0835293,0.245766,0.357764,0.97199,-0.041,
0.240086,1.26165,2.32703,-1.50116,-1.2226,-0.834208,-0.501694,0.0835165,0.244788,0.35799,0.97199,0.159,
0.241269,1.26118,2.32685,-1.50215,-1.22117,-0.834796,-0.504478,0.083504,0.243809,0.358216,0.971989,0.059,
0.242652,1.26062,2.32666,-1.50338,-1.21944,-0.835493,-0.507822,0.0834874,0.24264,0.358467,0.971989,0.059,
0.24404,1.26006,2.32646,-1.5046,-1.21771,-0.836196,-0.511158,0.0834713,0.24147,0.358719,0.971988,0.159,
0.245432,1.25949,2.32625,-1.50581,-1.21599,-0.836905,-0.514485,0.0834557,0.2403,0.358971,0.971988,-0.041,
0.246829,1.25892,2.32604,-1.507,-1.21428,-0.837621,-0.517804,0.0834407,0.239131,0.359223,0.971987,-0.041,
0.248231,1.25834,2.32583,-1.50819,-1.21257,-0.838342,-0.521115,0.0834262,0.237961,0.359475,0.971987,-0.241,
0.249806,1.25776,2.32536,-1.50874,-1.21146,-0.839077,-0.523667,0.0834388,0.236976,0.359887,0.971986,-0.041,
0.251386,1.25717,2.32489,-1.50927,-1.21036,-0.839814,-0.526211,0.0834517,0.23599,0.3603,0.971986,0.159,
0.252969,1.25658,2.32441,-1.5098,-1.20927,-0.840554,-0.528748,0.0834649,0.235005,0.360713,0.971986,0.259,
0.254555,1.25599,2.32393,-1.51032,-1.20818,-0.841296,-0.531278,0.0834784,0.234019,0.361125,0.971986,0.059,
0.256145,1.25539,2.32344,-1.51083,-1.2071,-0.84204,-0.533801,0.0834922,0.233034,0.361538,0.971986,0.159,
0.257287,1.25489,2.32333,-1.51202,-1.20547,-0.842667,-0.536821,0.0834726,0.231983,0.361692,0.971985,0.259,
0.258433,1.25438,2.32321,-1.5132,-1.20385,-0.843299,-0.539834,0.0834534,0.230932,0.361846,0.971985,0.159,
0.259582,1.25386,2.32308,-1.51438,-1.20224,-0.843937,-0.54284,0.0834346,0.229881,0.362,0.971984,-0.041,
0.260735,1.25334,2.32295,-1.51555,-1.20062,-0.844579,-0.54584,0.0834163,0.22883,0.362154,0.971984,0.059,
0.261891,1.25282,2.32282,-1.51671,-1.19902,-0.845227,-0.548834,0.0833984,0.227779,0.362308,0.971983,-0.041,
0.263571,1.25209,2.32252,-1.51804,-1.19705,-0.84613,-0.552655,0.0833852,0.2264,0.362591,0.971983,0.159,
0.265257,1.25135,2.32221,-1.51935,-1.19509,-0.847041,-0.556465,0.0833728,0.225022,0.362874,0.971982,0.359,
0.266949,1.25061,2.3219,-1.52066,-1.19314,-0.84796,-0.560263,0.0833609,0.223644,0.363157,0.971981,0.259,
0.268649,1.24986,2.32158,-1.52195,-1.1912,-0.848886,-0.564049,0.0833498,0.222265,0.36344,0.97198,0.159,
0.270354,1.24911,2.32125,-1.52322,-1.18927,-0.84982,-0.567824,0.0833393,0.220887,0.363723,0.97198,-0.141,
0.27166,1.24854,2.32096,-1.52408,-1.18791,-0.850523,-0.570537,0.0833355,0.219881,0.363959,0.971979,-0.041,
0.27297,1.24796,2.32067,-1.52493,-1.18656,-0.85123,-0.573243,0.0833322,0.218874,0.364195,0.971979,0.059,
0.274284,1.24739,2.32038,-1.52578,-1.18521,-0.851941,-0.575943,0.0833291,0.217868,0.364431,0.971979,0.259,
0.275601,1.24681,2.32008,-1.52662,-1.18387,-0.852655,-0.578636,0.0833264,0.216862,0.364666,0.971978,0.359,
0.276921,1.24623,2.31978,-1.52745,-1.18253,-0.853373,-0.581323,0.083324,0.215855,0.364902,0.971978,-0.041,
0.278039,1.24574,2.3195,-1.52808,-1.18148,-0.853972,-0.583487,0.0833246,0.215034,0.365114,0.971978,0.259,
0.27916,1.24525,2.31922,-1.5287,-1.18043,-0.854574,-0.585646,0.0833254,0.214213,0.365326,0.971978,0.059,
0.280283,1.24476,2.31894,-1.52932,-1.17938,-0.855177,-0.587801,0.0833264,0.213391,0.365538,0.971977,0.359,
0.281408,1.24427,2.31865,-1.52994,-1.17834,-0.855783,-0.589952,0.0833276,0.21257,0.365749,0.971977,0.259,
0.282536,1.24377,2.31836,-1.53055,-1.1773,-0.856391,-0.592099,0.0833291,0.211749,0.365961,0.971977,-0.341,
0.283444,1.24324,2.31841,-1.53204,-1.1754,-0.857035,-0.595312,0.0832949,0.210662,0.365939,0.971976,-0.041,
0.284355,1.24271,2.31846,-1.53354,-1.17351,-0.857685,-0.598519,0.0832612,0.209575,0.365916,0.971976,0.159,
0.285271,1.24217,2.3185,-1.53502,-1.17162,-0.858342,-0.601719,0.0832279,0.208488,0.365893,0.971975,0.059,
0.28619,1.24162,2.31854,-1.5365,-1.16974,-0.859005,-0.604914,0.083195,0.207401,0.365871,0.971974,0.259,
0.287113,1.24107,2.31858,-1.53796,-1.16785,-0.859675,-0.608102,0.0831625,0.206314,0.365848,0.971974,-0.041,
0.28747,1.2407,2.31892,-1.53968,-1.16591,-0.860127,-0.611032,0.08311,0.205406,0.365614,0.971973,0.159,
0.287829,1.24031,2.31925,-1.54139,-1.16397,-0.860585,-0.613958,0.0830579,0.204497,0.365379,0.971972,0.159,
0.28819,1.23993,2.31958,-1.5431,-1.16203,-0.86105,-0.61688,0.0830061,0.203589,0.365145,0.971972,0.159,
0.288554,1.23954,2.31991,-1.5448,-1.16008,-0.86152,-0.619798,0.0829546,0.202681,0.36491,0.971971,0.259,
0.28892,1.23914,2.32024,-1.54649,-1.15814,-0.861997,-0.622711,0.0829035,0.201772,0.364676,0.97197,-0.041,
0.290242,1.23847,2.31997,-1.5475,-1.15658,-0.862815,-0.625673,0.0828957,0.200669,0.364843,0.97197,0.059,
0.291569,1.23779,2.31969,-1.54851,-1.15502,-0.863637,-0.628626,0.0828883,0.199566,0.36501,0.971969,-0.041,
0.292899,1.23712,2.31941,-1.54951,-1.15347,-0.864463,-0.631573,0.0828811,0.198463,0.365178,0.971969,-0.141,
0.294234,1.23643,2.31913,-1.5505,-1.15192,-0.865294,-0.634512,0.0828744,0.19736,0.365345,0.971968,-0.141,
0.295573,1.23574,2.31884,-1.55149,-1.15038,-0.86613,-0.637444,0.0828679,0.196257,0.365512,0.971968,0.059,
0.296642,1.23513,2.31872,-1.55264,-1.14875,-0.86687,-0.640334,0.08285,0.195217,0.365567,0.971967,0.259,
0.297714,1.23452,2.31859,-1.55379,-1.14713,-0.867616,-0.643217,0.0828324,0.194177,0.365622,0.971967,0.159,
0.29879,1.2339,2.31846,-1.55494,-1.14551,-0.868366,-0.646095,0.0828151,0.193137,0.365677,0.971966,0.259,
0.299869,1.23327,2.31832,-1.55607,-1.14389,-0.869121,-0.648966,0.0827981,0.192096,0.365732,0.971966,0.259,
0.300952,1.23264,2.31818,-1.5572,-1.14228,-0.869881,-0.651832,0.0827814,0.191056,0.365786,0.971965,0.159,
0.302408,1.23194,2.31776,-1.55789,-1.141,-0.870738,-0.65445,0.0827875,0.190014,0.366031,0.971965,-0.141,
0.303867,1.23123,2.31733,-1.55857,-1.13974,-0.871598,-0.657061,0.0827939,0.188972,0.366276,0.971965,-0.141,
0.305331,1.23051,2.31689,-1.55925,-1.13847,-0.872461,-0.659665,0.0828005,0.187929,0.366521,0.971964,0.159,
0.306799,1.2298,2.31646,-1.55991,-1.13722,-0.873326,-0.662262,0.0828073,0.186887,0.366766,0.971964,0.159,
0.308271,1.22908,2.31601,-1.56057,-1.13597,-0.874194,-0.664852,0.0828144,0.185845,0.367011,0.971964,0.059,
0.308728,1.2286,2.31629,-1.5622,-1.13404,-0.874766,-0.667773,0.0827676,0.184906,0.366779,0.971963,0.259,
0.309189,1.22811,2.31655,-1.56383,-1.13211,-0.875344,-0.67069,0.0827211,0.183968,0.366547,0.971962,-0.041,
0.309652,1.22762,2.31682,-1.56545,-1.13018,-0.875929,-0.673602,0.0826749,0.183029,0.366315,0.971962,0.159,
0.310117,1.22713,2.31708,-1.56706,-1.12826,-0.876519,-0.676509,0.082629,0.18209,0.366084,0.971961,0.359,
0.310586,1.22663,2.31734,-1.56867,-1.12633,-0.877115,-0.679411,0.0825835,0.181152,0.365852,0.97196,0.159,
0.311486,1.22607,2.31721,-1.56958,-1.12501,-0.877778,-0.68175,0.0825706,0.18029,0.365882,0.97196,0.059,
0.31239,1.22552,2.31708,-1.57048,-1.12368,-0.878445,-0.684085,0.0825579,0.179429,0.365913,0.97196,0.159,
0.313296,1.22496,2.31694,-1.57138,-1.12236,-0.879114,-0.686416,0.0825454,0.178567,0.365944,0.971959,0.159,
0.314205,1.22439,2.31681,-1.57228,-1.12105,-0.879786,-0.688742,0.0825331,0.177705,0.365974,0.971959,0.259,
0.315116,1.22383,2.31667,-1.57317,-1.11974,-0.880462,-0.691064,0.0825209,0.176843,0.366005,0.971959,-0.141,
0.316469,1.22296,2.3165,-1.57464,-1.11763,-0.881502,-0.694722,0.082498,0.175502,0.366016,0.971958,0.159,
0.317828,1.22208,2.31632,-1.57609,-1.11553,-0.882549,-0.698371,0.0824755,0.17416,0.366026,0.971957,0.159,
0.319194,1.22119,2.31615,-1.57754,-1.11344,-0.883604,-0.702009,0.0824534,0.172818,0.366037,0.971956,0.159,
0.320566,1.2203,2.31596,-1.57897,-1.11135,-0.884667,-0.705637,0.0824318,0.171476,0.366048,0.971955,0.159,
0.321945,1.2194,2.31577,-1.58039,-1.10927,-0.885736,-0.709255,0.0824106,0.170134,0.366058,0.971954,-0.041,
0.32326,1.21874,2.31531,-1.5808,-1.10833,-0.886526,-0.711298,0.0824228,0.169264,0.366284,0.971954,-0.041,
0.324579,1.21808,2.31485,-1.58121,-1.10739,-0.887318,-0.713337,0.082435,0.168394,0.366509,0.971954,0.259,
0.325901,1.21741,2.31438,-1.58161,-1.10646,-0.88811,-0.715371,0.0824474,0.167524,0.366735,0.971953,-0.141,
0.327225,1.21675,2.31391,-1.58201,-1.10553,-0.888904,-0.7174,0.0824599,0.166655,0.36696,0.971953,0.159,
0.328553,1.21608,2.31344,-1.5824,-1.10461,-0.889699,-0.719424,0.0824725,0.165785,0.367186,0.971953,0.359,
0.32927,1.21561,2.31333,-1.58309,-1.10358,-0.890251,-0.721229,0.0824628,0.165106,0.367193,0.971953,-0.041,
0.329988,1.21514,2.31322,-1.58378,-1.10255,-0.890805,-0.723032,0.0824532,0.164427,0.367201,0.971953,-0.041,
0.330708,1.21467,2.3131,-1.58446,-1.10153,-0.89136,-0.724832,0.0824437,0.163748,0.367209,0.971952,0.059,
0.33143,1.2142,2.31298,-1.58515,-1.10051,-0.891917,-0.726629,0.0824343,0.163069,0.367216,0.971952,-0.041,
0.332153,1.21373,2.31286,-1.58583,-1.09949,-0.892476,-0.728424,0.082425,0.16239,0.367224,0.971952,0.059,
0.332881,1.21325,2.31274,-1.5865,-1.09847,-0.893039,-0.730224,0.0824158,0.161708,0.367231,0.971952,0.059,
0.333611,1.21277,2.31262,-1.58718,-1.09745,-0.893604,-0.732022,0.0824067,0.161027,0.367239,0.971952,0.159,
0.334343,1.21229,2.3125,-1.58785,-1.09643,-0.89417,-0.733816,0.0823976,0.160345,0.367247,0.971951,-0.241,
0.335076,1.21181,2.31237,-1.58852,-1.09541,-0.894738,-0.735609,0.0823886,0.159663,0.367254,0.971951,0.059,
0.335811,1.21133,2.31224,-1.58919,-1.0944,-0.895308,-0.737398,0.0823798,0.158981,0.367262,0.971951,0.159,
0.337439,1.21048,2.31167,-1.58968,-1.09325,-0.896307,-0.739891,0.0823941,0.157902,0.367516,0.971951,-0.041,
0.339071,1.20963,2.31109,-1.59017,-1.0921,-0.897307,-0.742376,0.0824086,0.156824,0.36777,0.97195,0.259,
0.340708,1.20878,2.3105,-1.59065,-1.09096,-0.89831,-0.744854,0.0824233,0.155745,0.368024,0.97195,0.059,
0.34235,1.20793,2.30991,-1.59111,-1.08982,-0.899314,-0.747324,0.0824382,0.154667,0.368278,0.97195,-0.141,
0.343997,1.20707,2.30932,-1.59158,-1.0887,-0.900319,-0.749787,0.0824533,0.153588,0.368532,0.971949,0.259,
0.344893,1.20628,2.30941,-1.59319,-1.08658,-0.901242,-0.753154,0.0824139,0.152404,0.368329,0.971948,0.059,
0.345795,1.20548,2.30949,-1.59479,-1.08446,-0.902172,-0.756514,0.0823749,0.15122,0.368126,0.971948,0.159,
