joint1,2,3,4,5,6,7,manip,x,y,z,force
0.119769,1.28553,2.31923,-1.36944,-1.37383,-0.804408,-0.183123,0.0870489,0.347436,0.330218,0.971992,0.134,
0.121947,1.28494,2.31803,-1.36767,-1.37467,-0.805193,-0.183138,0.0871473,0.347242,0.331256,0.971992,-0.366,
0.123691,1.28447,2.31708,-1.36625,-1.37535,-0.805821,-0.183143,0.0872258,0.347087,0.332087,0.971992,-0.066,
0.125544,1.284,2.31617,-1.36508,-1.37579,-0.806449,-0.183613,0.0872956,0.346793,0.332945,0.971992,0.034,
0.127345,1.28346,2.31496,-1.3629,-1.37708,-0.807174,-0.18264,0.0874041,0.346902,0.333854,0.971992,0.034,
0.129588,1.28283,2.31363,-1.36074,-1.37821,-0.808012,-0.182203,0.0875163,0.346822,0.334943,0.971992,0.134,
0.131385,1.28233,2.31257,-1.35901,-1.37912,-0.808682,-0.181847,0.0876058,0.346758,0.335814,0.971991,0.034,
0.132823,1.28193,2.31171,-1.35762,-1.37985,-0.809218,-0.181558,0.0876773,0.346707,0.336511,0.971991,-0.066,
0.134745,1.28135,2.31041,-1.35522,-1.38125,-0.809994,-0.180447,0.0877929,0.34684,0.337482,0.971991,-0.066,
0.136285,1.28088,2.30936,-1.3533,-1.38237,-0.810615,-0.179553,0.0878851,0.346948,0.338258,0.971991,-0.166,
0.13832,1.28032,2.30817,-1.35135,-1.38338,-0.811367,-0.17917,0.0879838,0.346865,0.33924,0.971991,-0.066,
0.140375,1.27971,2.3068,-1.34887,-1.38479,-0.812184,-0.178104,0.0881019,0.34697,0.340267,0.97199,0.034,
0.142901,1.27896,2.30516,-1.34594,-1.38643,-0.813173,-0.176948,0.0882417,0.347055,0.34152,0.97199,0.034,
0.144924,1.27837,2.30385,-1.34358,-1.38775,-0.813964,-0.176016,0.088353,0.347123,0.342522,0.97199,-0.066,
0.146544,1.27789,2.3028,-1.34169,-1.3888,-0.814597,-0.175265,0.0884417,0.347178,0.343324,0.97199,-0.166,
0.147842,1.27751,2.30196,-1.34017,-1.38964,-0.815104,-0.17466,0.0885125,0.347223,0.343966,0.97199,-0.166,
0.150559,1.27676,2.30039,-1.33757,-1.39093,-0.816092,-0.17419,0.088638,0.347092,0.345266,0.971989,0.034,
0.152736,1.27617,2.29914,-1.33549,-1.39197,-0.816881,-0.173804,0.088738,0.346988,0.346307,0.971989,0.034,
0.154937,1.2756,2.29799,-1.33376,-1.39272,-0.81763,-0.173932,0.0888243,0.346736,0.34733,0.971989,0.034,
0.156699,1.27514,2.29707,-1.33237,-1.39331,-0.818228,-0.174027,0.0888932,0.346535,0.348148,0.971989,0.034,
0.158871,1.27452,2.29572,-1.32997,-1.39459,-0.819051,-0.173214,0.0890026,0.346547,0.349206,0.971989,0.034,
0.160611,1.27402,2.29464,-1.32803,-1.39561,-0.819709,-0.172558,0.0890898,0.346556,0.350053,0.971989,-0.166,
0.162004,1.27362,2.29377,-1.32648,-1.39643,-0.820236,-0.17203,0.0891593,0.346564,0.35073,0.971989,-0.066,
0.164864,1.27281,2.292,-1.32332,-1.39808,-0.821313,-0.170971,0.0893002,0.346571,0.352117,0.971988,0.134,
0.167155,1.27215,2.29058,-1.32077,-1.39941,-0.822174,-0.170113,0.0894122,0.346578,0.353227,0.971988,0.134,
0.169447,1.27154,2.28931,-1.31866,-1.40039,-0.822976,-0.169849,0.0895077,0.346416,0.354304,0.971988,0.134,
0.171281,1.27105,2.28829,-1.31697,-1.40118,-0.823617,-0.169631,0.0895839,0.346288,0.355166,0.971988,0.034,
0.173164,1.2705,2.28708,-1.31471,-1.40239,-0.824343,-0.168701,0.0896797,0.346353,0.356087,0.971988,0.234,
0.17547,1.26987,2.28576,-1.31244,-1.40349,-0.825164,-0.168241,0.0897787,0.346241,0.357177,0.971987,0.234,
0.177887,1.26929,2.28464,-1.31088,-1.40401,-0.825913,-0.168846,0.0898538,0.345815,0.35826,0.971987,-0.066,
0.179822,1.26883,2.28374,-1.30962,-1.40444,-0.826513,-0.169321,0.0899138,0.345475,0.359127,0.971987,0.034,
0.181372,1.26846,2.28302,-1.30861,-1.40479,-0.826992,-0.169696,0.0899618,0.345204,0.359821,0.971987,0.234,
0.182613,1.26817,2.28244,-1.3078,-1.40506,-0.827375,-0.169992,0.0900001,0.344987,0.360376,0.971987,0.034,
0.184294,1.26773,2.28155,-1.30636,-1.40569,-0.827939,-0.169946,0.090063,0.344819,0.361151,0.971987,0.034,
0.186558,1.26721,2.28057,-1.30507,-1.40605,-0.828611,-0.170735,0.0901259,0.34435,0.362148,0.971987,0.134,
0.18837,1.2668,2.27977,-1.30403,-1.40635,-0.829148,-0.171358,0.0901762,0.343975,0.362945,0.971987,-0.166,
0.189822,1.26647,2.27914,-1.30319,-1.40659,-0.829577,-0.171852,0.0902164,0.343676,0.363584,0.971987,-0.066,
0.190984,1.2662,2.27863,-1.30252,-1.40678,-0.829921,-0.172244,0.0902485,0.343437,0.364094,0.971987,0.134,
0.193179,1.26572,2.27773,-1.30143,-1.40701,-0.830545,-0.17323,0.090303,0.342914,0.365045,0.971987,0.234,
0.194938,1.26533,2.27701,-1.30055,-1.4072,-0.831044,-0.174012,0.0903465,0.342497,0.365806,0.971987,0.034,
0.197039,1.26495,2.27644,-1.30042,-1.40676,-0.831518,-0.176145,0.090369,0.341657,0.366647,0.971987,-0.066,
0.198723,1.26465,2.27598,-1.3003,-1.40641,-0.831899,-0.177843,0.0903872,0.340986,0.367321,0.971987,0.334,
0.201275,1.26407,2.27486,-1.2988,-1.40684,-0.83265,-0.178681,0.090457,0.340456,0.368437,0.971987,0.134,
0.20332,1.2636,2.27397,-1.2976,-1.4072,-0.833251,-0.179342,0.0905128,0.340033,0.36933,0.971987,-0.066,
0.205537,1.26315,2.27318,-1.29686,-1.40716,-0.833825,-0.180811,0.0905548,0.33936,0.370255,0.971987,-0.066,
0.207313,1.26279,2.27254,-1.29626,-1.40714,-0.834285,-0.181979,0.0905885,0.338822,0.370994,0.971987,0.234,
0.209472,1.26225,2.27143,-1.29446,-1.40789,-0.834984,-0.181984,0.090663,0.338566,0.371973,0.971987,0.134,
0.211201,1.26182,2.27054,-1.29301,-1.4085,-0.835543,-0.181981,0.0907224,0.338362,0.372756,0.971987,0.134,
0.213629,1.26131,2.26961,-1.29198,-1.40862,-0.836194,-0.183301,0.090774,0.337698,0.373779,0.971987,0.034,
0.215574,1.2609,2.26887,-1.29115,-1.40872,-0.836715,-0.184348,0.0908154,0.337168,0.374598,0.971987,-0.066,
0.217132,1.26057,2.26827,-1.29048,-1.4088,-0.837132,-0.18518,0.0908485,0.336744,0.375253,0.971987,0.134,
0.219309,1.26014,2.2675,-1.28975,-1.40877,-0.837686,-0.186614,0.0908883,0.336073,0.376151,0.971987,0.034,
0.221053,1.25979,2.26688,-1.28916,-1.40875,-0.83813,-0.187754,0.0909202,0.335537,0.37687,0.971987,0.034,
0.222915,1.25942,2.26624,-1.28859,-1.40869,-0.838596,-0.189044,0.0909524,0.334942,0.377632,0.971987,0.034,
0.224406,1.25912,2.26573,-1.28812,-1.40864,-0.838969,-0.19007,0.0909783,0.334466,0.378242,0.971987,0.434,
0.2256,1.25889,2.26532,-1.28775,-1.40861,-0.839268,-0.190887,0.0909991,0.334086,0.37873,0.971987,0.034,
0.227837,1.25843,2.26448,-1.28683,-1.4087,-0.839855,-0.192136,0.0910443,0.333452,0.37966,0.971987,-0.066,
0.229628,1.25805,2.2638,-1.28609,-1.40878,-0.840325,-0.193128,0.0910805,0.332946,0.380404,0.971988,-0.166,
0.23153,1.25767,2.26311,-1.28538,-1.4088,-0.840812,-0.194292,0.0911163,0.332375,0.381186,0.971988,-0.366,
0.233054,1.25736,2.26256,-1.28481,-1.40882,-0.841202,-0.195217,0.091145,0.331919,0.381812,0.971988,0.034,
0.234275,1.25712,2.26212,-1.28435,-1.40883,-0.841515,-0.195954,0.0911679,0.331554,0.382313,0.971988,0.234,
0.235251,1.25692,2.26176,-1.28398,-1.40885,-0.841765,-0.196541,0.0911863,0.331262,0.382713,0.971988,0.134,
0.236722,1.25674,2.26163,-1.2847,-1.40797,-0.841976,-0.199086,0.0911765,0.33035,0.383215,0.971987,0.034,
0.237902,1.2566,2.26153,-1.28527,-1.40727,-0.842147,-0.201117,0.0911689,0.329621,0.383616,0.971987,0.134,
0.239444,1.25641,2.26136,-1.28592,-1.40643,-0.842385,-0.203646,0.0911618,0.328702,0.384147,0.971987,-0.166,
0.241154,1.25616,2.26106,-1.28631,-1.40572,-0.84269,-0.206032,0.0911635,0.327801,0.38476,0.971987,0.134,
0.242525,1.25596,2.26083,-1.28662,-1.40515,-0.842937,-0.207936,0.091165,0.327081,0.38525,0.971987,0.034,
0.244224,1.25571,2.26055,-1.28705,-1.40442,-0.843238,-0.210356,0.0911655,0.326169,0.385853,0.971987,0.134,
0.245587,1.25551,2.26032,-1.28739,-1.40383,-0.843481,-0.212286,0.0911662,0.32544,0.386335,0.971987,0.034,
0.247281,1.25527,2.26005,-1.28783,-1.40308,-0.84378,-0.214724,0.0911663,0.324521,0.38693,0.971987,0.234,
0.248769,1.25508,2.25989,-1.28849,-1.40224,-0.844011,-0.217202,0.0911587,0.323618,0.387429,0.971987,0.134,
0.251014,1.25459,2.25894,-1.28723,-1.40257,-0.844638,-0.21802,0.0912131,0.323082,0.388371,0.971987,0.034,
0.253416,1.2541,2.25808,-1.2864,-1.40255,-0.845244,-0.219555,0.0912562,0.322319,0.389334,0.971987,-0.166,
0.255341,1.25372,2.25739,-1.28572,-1.40255,-0.84573,-0.220773,0.0912908,0.321709,0.390105,0.971987,-0.166,
0.257489,1.25332,2.25675,-1.28534,-1.40227,-0.846224,-0.222625,0.0913183,0.320888,0.390931,0.971987,0.134,
0.259211,1.25301,2.25623,-1.28502,-1.40206,-0.846621,-0.224099,0.0913405,0.32023,0.391592,0.971987,0.034,
0.26059,1.25275,2.25581,-1.28477,-1.40189,-0.84694,-0.225272,0.0913584,0.319705,0.392121,0.971987,0.034,
0.261694,1.25255,2.25547,-1.28456,-1.40176,-0.847195,-0.226209,0.0913728,0.319285,0.392544,0.971987,0.034,
0.263882,1.2521,2.25466,-1.2837,-1.40182,-0.847755,-0.22747,0.0914142,0.318619,0.393422,0.971987,0.134,
0.265634,1.25174,2.25401,-1.283,-1.40187,-0.848203,-0.228473,0.0914474,0.318087,0.394124,0.971987,0.134,
0.267038,1.25146,2.25349,-1.28243,-1.40191,-0.848562,-0.22927,0.091474,0.317661,0.394686,0.971987,0.034,
0.268989,1.25104,2.25269,-1.28141,-1.40214,-0.849089,-0.230065,0.0915175,0.317157,0.395488,0.971987,0.134,
0.270551,1.2507,2.25205,-1.28058,-1.40233,-0.849511,-0.230696,0.0915524,0.316755,0.396129,0.971987,0.034,
0.271802,1.25044,2.25154,-1.27992,-1.40248,-0.849848,-0.231197,0.0915802,0.316433,0.396643,0.971987,0.034,
0.274113,1.24994,2.25058,-1.27867,-1.40278,-0.850474,-0.232089,0.0916321,0.315846,0.397592,0.971987,0.134,
0.275964,1.24954,2.24982,-1.27766,-1.40302,-0.850974,-0.232796,0.0916736,0.315376,0.398352,0.971987,0.034,
0.277724,1.24927,2.24947,-1.27791,-1.40241,-0.851302,-0.235046,0.0916793,0.31448,0.398963,0.971987,0.034,
0.279135,1.24906,2.24919,-1.27811,-1.40191,-0.851565,-0.236841,0.0916841,0.313762,0.399452,0.971987,0.034,
0.281235,1.2487,2.24864,-1.27797,-1.40149,-0.852012,-0.238942,0.0917034,0.312856,0.400219,0.971987,-0.066,
0.282919,1.24841,2.24819,-1.27784,-1.40116,-0.85237,-0.240615,0.091719,0.312131,0.400832,0.971987,0.034,
0.284268,1.24817,2.24783,-1.27774,-1.40089,-0.852658,-0.241948,0.0917316,0.311551,0.401323,0.971987,0.034,
0.285348,1.24799,2.24754,-1.27765,-1.40068,-0.852888,-0.243012,0.0917418,0.311087,0.401717,0.971987,0.034,
0.287811,1.24756,2.24687,-1.2774,-1.40024,-0.853421,-0.245368,0.0917665,0.310048,0.402616,0.971987,-0.066,
0.289786,1.24721,2.24632,-1.27719,-1.3999,-0.853849,-0.247242,0.0917865,0.309217,0.403335,0.971987,-0.066,
0.291369,1.24693,2.24589,-1.27701,-1.39963,-0.854192,-0.248735,0.0918027,0.308553,0.403912,0.971987,0.034,
0.293125,1.24661,2.24536,-1.2767,-1.3994,-0.854586,-0.250248,0.0918236,0.307855,0.40456,0.971987,0.034,
0.294533,1.24636,2.24494,-1.27645,-1.39922,-0.854902,-0.251454,0.0918405,0.307297,0.405079,0.971987,0.034,
0.296779,1.24596,2.24432,-1.2762,-1.39884,-0.855388,-0.253574,0.0918632,0.306349,0.405892,0.971987,0.034,
0.29858,1.24565,2.24382,-1.27599,-1.39853,-0.855778,-0.255262,0.0918817,0.305591,0.406543,0.971987,0.034,
0.300023,1.24539,2.24342,-1.27582,-1.39829,-0.856092,-0.256607,0.0918966,0.304985,0.407063,0.971987,0.034,
0.301179,1.24519,2.24309,-1.27567,-1.3981,-0.856343,-0.257679,0.0919086,0.3045,0.40748,0.971987,0.034,
0.303722,1.24474,2.24237,-1.27532,-1.39771,-0.8569,-0.259994,0.0919359,0.303444,0.408398,0.971987,-0.066,
0.305761,1.24437,2.24179,-1.27503,-1.3974,-0.857347,-0.261836,0.0919579,0.302599,0.409133,0.971987,0.034,
0.307395,1.24408,2.24132,-1.2748,-1.39716,-0.857705,-0.263302,0.0919758,0.301924,0.409721,0.971987,0.334,
0.309198,1.24375,2.24076,-1.27442,-1.39697,-0.858113,-0.26478,0.0919982,0.301217,0.41038,0.971987,0.134,
0.31128,1.24339,2.2402,-1.27422,-1.39659,-0.858558,-0.266777,0.0920182,0.300317,0.411116,0.971987,-0.166,
0.31295,1.2431,2.23974,-1.27404,-1.3963,-0.858916,-0.268368,0.0920344,0.299597,0.411706,0.971987,0.034,
0.314287,1.24286,2.23937,-1.2739,-1.39606,-0.859203,-0.269636,0.0920475,0.299021,0.412178,0.971987,0.034,
0.315695,1.2427,2.23931,-1.2748,-1.39509,-0.859387,-0.272328,0.0920337,0.298028,0.412566,0.971987,-0.066,
0.316824,1.24258,2.23926,-1.27551,-1.39431,-0.859538,-0.274477,0.0920229,0.297233,0.412877,0.971986,0.034,
0.318228,1.24237,2.23904,-1.27589,-1.3937,-0.859782,-0.276496,0.0920227,0.296431,0.413315,0.971986,0.134,
0.319353,1.24221,2.23886,-1.27619,-1.39321,-0.859978,-0.278107,0.0920227,0.295789,0.413664,0.971986,-0.066,
0.320255,1.24208,2.23872,-1.27642,-1.39282,-0.860136,-0.279393,0.0920228,0.295276,0.413945,0.971986,0.134,
0.321827,1.2419,2.23865,-1.27742,-1.39173,-0.860348,-0.282404,0.0920074,0.294161,0.414369,0.971986,0.034,
0.323089,1.24175,2.23859,-1.27822,-1.39086,-0.860521,-0.284806,0.0919953,0.29327,0.414709,0.971986,0.034,
0.324755,1.24152,2.23841,-1.27892,-1.38995,-0.860789,-0.287531,0.0919884,0.29222,0.415192,0.971986,0.034,
0.326092,1.24134,2.23826,-1.27948,-1.38923,-0.861005,-0.289705,0.0919832,0.29138,0.415579,0.971986,0.134,
0.327163,1.24119,2.23813,-1.27992,-1.38865,-0.86118,-0.29144,0.0919792,0.290708,0.415889,0.971986,-0.066,
0.329029,1.24087,2.23766,-1.27987,-1.38821,-0.861571,-0.293411,0.0919936,0.289835,0.416514,0.971986,0.234,
0.330524,1.24062,2.23728,-1.27983,-1.38786,-0.861884,-0.294982,0.0920053,0.289138,0.417014,0.971986,0.234,
0.332226,1.24031,2.23679,-1.27959,-1.3876,-0.862261,-0.296524,0.0920237,0.288412,0.417604,0.971986,-0.066,
0.33359,1.24006,2.2364,-1.2794,-1.38739,-0.862563,-0.297754,0.0920385,0.287832,0.418075,0.971986,0.034,
0.335215,1.23987,2.23634,-1.28048,-1.38623,-0.862787,-0.300923,0.0920215,0.286656,0.41849,0.971985,-0.166,
0.336519,1.23971,2.23628,-1.28133,-1.3853,-0.86297,-0.303452,0.0920081,0.285715,0.418822,0.971985,0.034,
0.338074,1.23948,2.23605,-1.28181,-1.38457,-0.863246,-0.305756,0.0920067,0.284794,0.419277,0.971985,-0.066,
0.339321,1.23929,2.23586,-1.28218,-1.384,-0.863468,-0.307595,0.0920057,0.284058,0.419641,0.971985,0.134,
0.340358,1.23925,2.23614,-1.28391,-1.38252,-0.863512,-0.310971,0.0919673,0.28292,0.419782,0.971985,-0.366,
0.342489,1.23888,2.23562,-1.28394,-1.38196,-0.863956,-0.313328,0.0919818,0.281882,0.420468,0.971985,0.034,
0.344197,1.23859,2.23521,-1.28396,-1.38151,-0.864313,-0.315206,0.0919936,0.281052,0.421018,0.971985,-0.166,
0.346237,1.23823,2.23472,-1.284,-1.38096,-0.864737,-0.317482,0.0920071,0.28005,0.42167,0.971985,-0.066,
0.347873,1.23795,2.23432,-1.28403,-1.38052,-0.865079,-0.319295,0.0920181,0.279249,0.422192,0.971985,0.034,
0.349858,1.23761,2.23384,-1.28408,-1.37998,-0.865491,-0.321515,0.092031,0.27827,0.422821,0.971985,-0.066,
0.351448,1.23734,2.23346,-1.28411,-1.37956,-0.865823,-0.323284,0.0920416,0.277486,0.423325,0.971985,0.034,
0.352622,1.23722,2.23354,-1.2853,-1.37842,-0.865956,-0.326103,0.0920187,0.276478,0.423556,0.971984,-0.066,
0.353564,1.23712,2.2336,-1.28624,-1.37752,-0.866066,-0.328355,0.0920005,0.275672,0.423742,0.971984,0.034,
0.355351,1.23683,2.23325,-1.28654,-1.37685,-0.866416,-0.330693,0.0920053,0.27469,0.42427,0.971984,-0.166,
0.356783,1.2366,2.23296,-1.28678,-1.37631,-0.866698,-0.332557,0.0920094,0.273905,0.424693,0.971984,-0.066,
0.357932,1.23641,2.23273,-1.28697,-1.37589,-0.866925,-0.334045,0.0920128,0.273277,0.425032,0.971984,0.134,
0.359279,1.23624,2.23273,-1.28804,-1.37478,-0.867112,-0.336913,0.0919939,0.272221,0.425322,0.971984,-0.166,
0.36036,1.23611,2.23273,-1.2889,-1.3739,-0.867264,-0.339204,0.091979,0.271376,0.425554,0.971984,-0.266,
0.361228,1.236,2.23272,-1.28958,-1.3732,-0.867389,-0.341033,0.0919672,0.2707,0.425741,0.971984,0.234,
0.36236,1.2359,2.23289,-1.29105,-1.37187,-0.8675,-0.34418,0.0919363,0.269603,0.425909,0.971983,0.134,
0.36327,1.23581,2.23303,-1.29221,-1.3708,-0.867592,-0.346693,0.0919116,0.268726,0.426045,0.971983,-0.066,
0.364001,1.23574,2.23313,-1.29314,-1.36996,-0.867669,-0.348701,0.091892,0.268024,0.426153,0.971983,0.034,
0.365033,1.23567,2.23338,-1.2948,-1.36851,-0.867749,-0.351995,0.0918548,0.266903,0.42626,0.971982,0.034,
0.367154,1.23528,2.23282,-1.29474,-1.368,-0.868218,-0.35421,0.0918726,0.265886,0.426921,0.971982,0.134,
0.368855,1.23497,2.23237,-1.29467,-1.36761,-0.868594,-0.355975,0.091887,0.265072,0.42745,0.971982,0.434,
0.370498,1.23477,2.23244,-1.29623,-1.36606,-0.868821,-0.359801,0.0918571,0.263685,0.427749,0.971982,-0.066,
0.371819,1.2346,2.23248,-1.29747,-1.36484,-0.869008,-0.362856,0.0918334,0.262576,0.427989,0.971982,0.034,
0.372881,1.23447,2.23252,-1.29845,-1.36386,-0.869162,-0.365295,0.0918148,0.261689,0.428181,0.971982,-0.166,
0.374436,1.23423,2.23236,-1.29922,-1.3629,-0.869443,-0.367987,0.0918057,0.260637,0.428549,0.971981,0.134,
0.375683,1.23404,2.23222,-1.29982,-1.36214,-0.869671,-0.370136,0.0917987,0.259795,0.428843,0.971981,0.034,
0.37663,1.23396,2.23248,-1.30144,-1.36072,-0.869753,-0.37329,0.0917615,0.258727,0.42891,0.971981,0.134,
0.37792,1.23378,2.23247,-1.30248,-1.35963,-0.86996,-0.376058,0.0917429,0.257702,0.429155,0.971981,-0.066,
0.378957,1.23363,2.23246,-1.30331,-1.35876,-0.870128,-0.378268,0.0917281,0.256881,0.429351,0.971981,0.134,
0.379741,1.23359,2.23281,-1.3051,-1.35726,-0.870167,-0.381477,0.0916846,0.255827,0.429339,0.97198,-0.066,
0.38166,1.23323,2.23231,-1.30512,-1.35674,-0.8706,-0.383578,0.0916993,0.254869,0.429906,0.97198,0.034,
0.383198,1.23294,2.23191,-1.30512,-1.35633,-0.870948,-0.385252,0.0917113,0.254102,0.430359,0.97198,-0.066,
0.384431,1.23271,2.23159,-1.30512,-1.35601,-0.871227,-0.386587,0.091721,0.253489,0.430722,0.97198,0.134,
0.38595,1.23241,2.23112,-1.30485,-1.3558,-0.871591,-0.387892,0.09174,0.252828,0.431205,0.97198,-0.066,
0.387167,1.23217,2.23073,-1.30464,-1.35563,-0.871882,-0.388933,0.0917554,0.2523,0.431591,0.97198,0.134,
0.388674,1.23186,2.23021,-1.30421,-1.35554,-0.872254,-0.390001,0.091779,0.251707,0.432092,0.97198,-0.166,
0.3902,1.23159,2.2299,-1.3045,-1.35493,-0.872577,-0.392044,0.0917827,0.250835,0.432496,0.97198,0.034,
0.392144,1.23123,2.22945,-1.30469,-1.35428,-0.873003,-0.394397,0.0917927,0.249793,0.433033,0.97198,0.034,
0.393703,1.23095,2.22909,-1.30483,-1.35376,-0.873346,-0.396273,0.0918009,0.24896,0.433464,0.97198,0.034,
0.394928,1.23078,2.22915,-1.30606,-1.35255,-0.873536,-0.399219,0.0917767,0.24789,0.433642,0.97198,0.234,
0.396639,1.2305,2.22899,-1.30698,-1.35143,-0.87386,-0.40229,0.0917646,0.246689,0.434,0.971979,-0.366,
0.398012,1.23028,2.22885,-1.30771,-1.35053,-0.874123,-0.40474,0.0917552,0.245729,0.434287,0.971979,0.034,
0.398748,1.23025,2.22933,-1.30989,-1.34875,-0.874142,-0.408409,0.0917007,0.244551,0.434179,0.971979,0.034,
0.399341,1.23022,2.22971,-1.31163,-1.34732,-0.874164,-0.411341,0.0916572,0.243609,0.434093,0.971978,-0.066,
0.400362,1.23007,2.22978,-1.31274,-1.34624,-0.874327,-0.413912,0.0916344,0.242684,0.434218,0.971978,0.134,
0.401181,1.22995,2.22984,-1.31362,-1.34537,-0.874461,-0.415965,0.0916163,0.241944,0.434318,0.971978,0.134,
0.402381,1.22974,2.22965,-1.31405,-1.34474,-0.874714,-0.417831,0.091614,0.24118,0.434592,0.971978,0.134,
0.403342,1.22957,2.2295,-1.31439,-1.34423,-0.874917,-0.419321,0.0916123,0.240569,0.434812,0.971978,-0.066,
0.404461,1.22939,2.22947,-1.31528,-1.34327,-0.875123,-0.421711,0.0915964,0.239674,0.434991,0.971978,-0.066,
0.405555,1.22927,2.2298,-1.3173,-1.34149,-0.875256,-0.42557,0.0915483,0.238371,0.43499,0.971977,0.034,
0.406436,1.22916,2.23006,-1.31891,-1.34007,-0.875368,-0.428653,0.0915101,0.237329,0.43499,0.971977,-0.066,
0.407145,1.22907,2.23027,-1.32019,-1.33893,-0.875461,-0.431117,0.0914796,0.236495,0.43499,0.971976,-0.066,
0.408262,1.22888,2.23019,-1.32093,-1.33808,-0.875685,-0.433305,0.0914679,0.235655,0.435185,0.971976,0.134,
0.40917,1.22877,2.23046,-1.32262,-1.33658,-0.875807,-0.436524,0.0914274,0.234569,0.435174,0.971976,0.034,
0.409901,1.22867,2.23068,-1.32396,-1.33538,-0.875908,-0.439096,0.0913951,0.2337,0.435165,0.971976,-0.066,
0.411038,1.22848,2.23061,-1.32474,-1.33449,-0.876141,-0.441367,0.0913822,0.232832,0.435353,0.971975,0.034,
0.412371,1.22828,2.23089,-1.32686,-1.33254,-0.876351,-0.445624,0.0913325,0.231368,0.435382,0.971975,0.034,
0.413445,1.22813,2.23112,-1.32855,-1.33099,-0.876527,-0.449022,0.0912931,0.230197,0.435406,0.971974,0.034,
0.41431,1.228,2.23129,-1.32988,-1.32975,-0.876672,-0.451737,0.0912618,0.22926,0.435426,0.971974,0.134,
0.414682,1.22801,2.232,-1.33253,-1.32765,-0.876635,-0.45566,0.0911879,0.228088,0.4351,0.971973,-0.166,
0.41554,1.22789,2.23231,-1.33435,-1.32605,-0.876764,-0.459005,0.0911423,0.226977,0.435036,0.971973,0.034,
0.416992,1.22763,2.23232,-1.33569,-1.32463,-0.877067,-0.462369,0.0911157,0.225737,0.435205,0.971972,-0.066,
